frequency	# of variants
0.0002	0.000164230952262
0.00021	0.000158293661871
0.0002205	0.000152675816476
0.000231525	0.000147365277472
0.00024310125	0.000142350764198
0.0002552563125	0.00013762183659
0.000268019128125	0.000133168892362
0.000281420084531	0.000128983232713
0.000295491088758	0.000125057029191
0.000310265643196	0.000121383394689
0.000325778925355	0.000117956422633
0.000342067871623	0.000114771238976
0.000359171265204	0.000111824053422
0.000377129828465	0.000109112331671
0.000395986319888	0.000106634824342
0.000415785635882	0.000104391792431
0.000436574917676	0.000102385149175
0.00045840366356	0.000100618748585
0.000481323846738	9.90986475169e-05
0.000505390039075	9.78335489768e-05
0.000530659541029	9.6835274099e-05
0.00055719251808	9.61193877699e-05
0.000585052143984	9.57060655813e-05
0.000614304751184	9.56211518772e-05
0.000645019988743	9.5897604447e-05
0.00067727098818	9.65773305894e-05
0.000711134537589	9.77138015589e-05
0.000746691264468	9.93753440538e-05
0.000784025827692	0.000101649901143
0.000823227119076	0.000104651444983
0.00086438847503	0.000108529043334
0.000907607898782	0.000113479612068
0.000952988293721	0.00011976613983
0.00100063770841	0.000127744169445
0.00105066959383	0.000137899820964
0.00110320307352	0.000150906383883
0.00115836322719	0.000167707561477
0.00121628138855	0.000189650138651
0.00127709545798	0.000218733015469
0.00134095023088	0.000258298029573
0.00140799774242	0.000315994708709
0.00147839762955	0.000420542622236
0.00155231751102	0.000733378183297
0.00162993338657	0.00236371360743
0.0017114300559	0.00446602266332
0.0017970015587	482.485847302
0.00188685163663	25.9974652096
0.00198119421847	0.0122019065579
0.00208025392939	0.00225975313446
0.00218426662586	0.000612064402667
0.00229347995715	0.000220908511779
0.00240815395501	0.000143615716746
0.00252856165276	0.000102137912047
0.0026549897354	7.02718245041e-05
0.00278773922217	4.97752104491e-05
0.00292712618327	3.63750073122e-05
0.00307348249244	2.7079232584e-05
0.00322715661706	2.04439304017e-05
0.00338851444791	1.56526937121e-05
0.00355794017031	1.2157486063e-05
0.00373583717882	9.57379081419e-06
0.00392262903777	7.63406055783e-06
0.00411876048965	6.15421262345e-06
0.00432469851414	5.00782338431e-06
0.00454093343984	4.10743045029e-06
0.00476798011184	3.39169860116e-06
0.00500637911743	2.81687634131e-06
0.0052566980733	2.35117870824e-06
0.00551953297696	1.97109214526e-06
0.00579550962581	1.65892405903e-06
0.0060852851071	1.40115474329e-06
0.00638954936246	1.18731114317e-06
0.00670902683058	1.00918290435e-06
0.00704447817211	8.60266824573e-07
0.00739670208072	7.35366069251e-07
0.00776653718475	6.30296020507e-07
0.00815486404399	5.41665067297e-07
0.00856260724619	4.6670883011e-07
0.0089907376085	4.03163186958e-07
0.00944027448892	3.49165875936e-07
0.00991228821337	3.03179477216e-07
0.010407902624	2.63930575589e-07
0.0109282977552	2.30361324501e-07
0.011474712643	2.01590623625e-07
0.0120484482752	1.7688281145e-07
0.0126508706889	1.55622285677e-07
0.0132834142234	1.37292839829e-07
0.0139475849345	1.2146076696e-07
0.0146449641812	1.0776100228e-07
0.0153772123903	9.58857184137e-08
0.0161460730098	8.55749184802e-08
0.0169533766603	7.66086553577e-08
0.0178010454933	6.88005856929e-08
0.018691097768	6.19926180503e-08
0.0196256526564	5.60504644362e-08
0.0206069352892	5.08599368003e-08
0.0216372820537	4.63238617967e-08
0.0227191461564	4.23595091341e-08
0.0238551034642	3.88964484086e-08
0.0250478586374	3.58747651152e-08
0.0263002515693	3.3243579154e-08
0.0276152641477	3.09598209565e-08
0.0289960273551	2.89872288507e-08
0.0304458287229	2.72955410576e-08
0.031968120159	2.58598625387e-08
0.033566526167	2.46601957389e-08
0.0352448524753	2.36811323352e-08
0.0370070950991	2.29117134355e-08
0.038857449854	2.23454793503e-08
0.0408003223467	2.1980754765e-08
0.0428403384641	2.18212747476e-08
0.0449823553873	2.18774163888e-08
0.0472314731566	2.21686572897e-08
0.0495930468145	2.27281865434e-08
0.0520726991552	2.36096926581e-08
0.0546763341129	2.48966858683e-08
0.0574101508186	2.67247541458e-08
0.0602806583595	2.93296638957e-08
0.0632946912775	3.31387446277e-08
0.0664594258414	3.90055142993e-08
0.0697823971334	4.89393611685e-08
0.0732715169901	6.90369161116e-08
0.0769350928396	1.30314682221e-07
0.0807818474816	1.03822280411
